time,temperature,gas,humidity,pressure,altitude,Concentration Units (Standard) PM 1.0,Concentration Units (Standard) PM 2.5,Concentration Units (Standard) PM 10.0
1676677883,22.19074219,40266,16.96439025,1006.418695,57.0311615,0,2,2
1676677885,22.20910156,8369,16.94564656,1006.418684,57.03124778,0,2,2
1676677886,22.24875,12720,16.92797952,1006.425273,56.97608987,0,2,2
1676677887,22.28761719,15648,16.87094412,1006.435674,56.88902223,1,2,2
1676677888,22.32238281,17699,16.81372189,1006.444328,56.8165732,1,2,2
1676677889,22.35207031,19387,16.76117677,1006.459856,56.6865861,1,2,2
1676677891,22.37648438,20875,16.70838576,1006.456299,56.71636166,1,2,2
1676677892,22.3971875,22039,16.67505911,1006.460199,56.68371933,1,2,2
1676677893,22.414375,23135,16.63175116,1006.466756,56.6288276,1,2,2
1676677894,22.42980469,24076,16.59327393,1006.463533,56.65580527,1,2,2
1676677895,22.44289063,25040,16.55959437,1006.464931,56.64410255,1,2,2
1676677896,22.45363281,25779,16.5356116,1006.462405,56.66525026,1,2,2
1676677898,22.46359375,26665,16.5164959,1006.463698,56.65442842,1,2,2
1676677899,22.47238281,27343,16.48752285,1006.461319,56.67433961,1,2,2
1676677900,22.48019531,28038,16.46340755,1006.452178,56.750863,1,2,2
1676677901,22.48703125,28750,16.45394568,1006.451657,56.75522638,1,2,2
1676677902,22.49367188,29292,16.42977847,1006.452518,56.74802019,1,2,2
1676677904,22.49894531,29877,16.4202417,1006.457927,56.70274021,1,2,2
1676677905,22.50441406,30463,16.42051099,1006.465372,56.64041543,1,1,1
1676677906,22.50773438,31004,16.4059809,1006.460674,56.67973914,1,1,1
1676677907,22.51125,31564,16.41105159,1006.454594,56.73063559,1,1,1
1676677908,22.51476563,32120,16.40142935,1006.457061,56.70998947,1,1,1
1676677910,22.51847656,32569,16.40161192,1006.454726,56.72953317,1,1,1
1676677911,22.52160156,33136,16.38707407,1006.447992,56.78590604,1,1,1
1676677912,22.52511719,33614,16.3676609,1006.455586,56.72233416,0,1,1
1676677913,22.52824219,33913,16.35312698,1006.450561,56.76439921,0,1,1
1676677914,22.5315625,34386,16.33370953,1006.459538,56.68925529,0,1,1
1676677916,22.53449219,34642,16.31916998,1006.459314,56.69113054,0,0,0
1676677917,22.53664063,35077,16.34864363,1006.456072,56.71826249,0,0,0
1676677918,22.53917969,35523,16.35366372,1006.455194,56.72561202,0,0,0
1676677919,22.5409375,35826,16.35864574,1006.456427,56.71529029,0,1,1
1676677920,22.54503906,36292,16.36863933,1006.454746,56.72936491,0,1,1
1676677922,22.54875,36545,16.37861481,1006.45412,56.73460433,0,1,1
1676677923,22.55167969,36866,16.38855292,1006.453896,56.73648173,0,0,0
1676677924,22.55421875,37259,16.40826871,1006.451308,56.75814256,0,0,0
1676677925,22.55753906,37695,16.39863619,1006.453447,56.74023752,0,0,0
1676677926,22.55949219,37968,16.39873229,1006.451588,56.7557995,0,0,0
1676677927,22.56203125,38280,16.3939595,1006.454129,56.73453199,0,0,0
1676677929,22.56515625,38421,16.399011,1006.455941,56.71936431,0,0,0
1676677930,22.56769531,38992,16.41383063,1006.458481,56.69809708,0,0,0
1676677931,22.57140625,39322,16.41401339,1006.459564,56.68902968,0,0,0
1676677932,22.57335938,39544,16.41410959,1006.462834,56.66166285,0,0,0
1676677933,22.57667969,39959,16.39957808,1006.458135,56.70099945,0,1,1
1676677935,22.57902344,40266,16.37520578,1006.460348,56.68246955,0,1,1
1676677936,22.58078125,40617,16.34101825,1006.461581,56.67214973,0,1,1
1676677937,22.58273438,40815,16.31174455,1006.456303,56.71633407,0,1,1
1676677938,22.58527344,41055,16.2727212,1006.453715,56.73799876,0,1,1
1676677939,22.58742188,41297,16.24347418,1006.455601,56.72220607,0,1,1
1676677941,22.58957031,41461,16.23868773,1006.455778,56.72072385,0,0,0
1676677942,22.59152344,41750,16.21921988,1006.448791,56.77922027,0,0,0
1676677943,22.59464844,42001,16.20959181,1006.447183,56.79267662,0,0,0
1676677944,22.59679688,42170,16.20480656,1006.44907,56.77688456,0,0,0
1676677945,22.59796875,42555,16.219534,1006.449321,56.77477558,0,0,0
1676677947,22.59953125,42772,16.21961015,1006.453646,56.73857216,0,0,0
1676677948,22.60246094,42904,16.20997236,1006.453421,56.74045526,1,1,1
1676677949,22.60363281,43258,16.19536012,1006.451964,56.75265717,1,1,1
1676677950,22.60578125,43392,16.20524409,1006.441883,56.83704132,1,1,1
1676677951,22.60832031,43709,16.18580968,1006.446133,56.80146591,1,1,1
1676677953,22.61027344,43984,16.18101569,1006.444274,56.81703308,1,1,1
1676677954,22.61144531,44170,16.17129527,1006.444525,56.81492471,1,1,1
1676677955,22.61339844,44404,16.17139022,1006.446085,56.80187017,1,1,1
1676677956,22.61554688,44451,16.15194217,1006.449681,56.77176814,1,1,1
1676677957,22.6175,44831,16.12760105,1006.447821,56.78733587,1,1,1
1676677958,22.61925781,44879,16.12279972,1006.442215,56.83426273,1,1,1
1676677960,22.62082031,45024,16.10821696,1006.441411,56.84099291,1,1,1
1676677961,22.62277344,45316,16.13274364,1006.437842,56.87087277,1,1,1
1676677962,22.62375,45562,16.13279101,1006.439477,56.85719018,1,1,1
1676677963,22.62589844,45711,16.14755715,1006.441363,56.84139986,1,1,1
1676677964,22.62746094,45911,16.14274548,1006.442268,56.83381914,1,1,1
1676677966,22.62941406,46012,16.1330658,1006.436989,56.8780112,1,1,1
1676677967,22.63117188,46317,16.152701,1006.443351,56.82475982,1,1,1
1676677968,22.63214844,46626,16.15274843,1006.443275,56.8253888,1,1,1
1676677969,22.63351563,46626,16.1674796,1006.438725,56.86347936,0,1,1
1676677970,22.63527344,46730,16.17245375,1006.445086,56.81022795,0,1,1
1676677972,22.63664063,47045,16.18229831,1006.452504,56.74813813,0,1,1
1676677973,22.63878906,47070,16.17262469,1006.445842,56.80390596,0,1,1
1676677974,22.64074219,47336,16.17271967,1006.442272,56.83378774,0,1,1
1676677975,22.6409375,47416,16.15806347,1006.444309,56.81673962,0,1,1
1676677976,22.64230469,47740,16.15324174,1006.446597,56.79758437,1,2,2
1676677978,22.64289063,47877,16.1532702,1006.447577,56.78937498,1,2,2
1676677979,22.64445313,48042,16.12890836,1006.445064,56.81041835,1,2,2
1676677980,22.64660156,48291,16.1143524,1006.44695,56.79462909,1,1,1
1676677981,22.64816406,48263,16.0851134,1006.451275,56.75842578,1,1,1
1676677982,22.64933594,48375,16.0754002,1006.451526,56.75631884,1,1,1
1676677984,22.65128906,48487,16.07549467,1006.451376,56.75757797,1,1,1
1676677985,22.65226563,48712,16.05600448,1006.458139,56.70096049,1,1,1
1676677986,22.65265625,48911,16.06090739,1006.455374,56.72411113,1,1,1
1676677987,22.6534375,48997,16.06094515,1006.453262,56.741789,1,2,2
1676677988,22.655,49141,16.06590495,1006.461006,56.67696217,1,2,2
1676677989,22.65578125,49228,16.08059689,1006.453765,56.73757554,1,2,2
1676677991,22.6565625,49257,16.07574974,1006.458492,56.69800615,1,2,2
1676677992,22.65792969,49431,16.10024281,1006.459071,56.69316303,1,2,2
1676677993,22.65851563,49636,16.10027119,1006.454922,56.72788942,1,2,2
1676677994,22.66046875,49577,16.11013813,1006.458191,56.70052528,1,2,2
1676677995,22.66105469,49932,16.12482664,1006.454043,56.73525189,1,2,2
1676677997,22.66222656,49962,16.13465799,1006.456004,56.71883345,1,2,2
1676677998,22.66417969,50111,16.12986539,1006.454144,56.73440546,1,2,2
1676677999,22.66476563,50141,16.12989382,1006.451705,56.75482039,1,2,2
1676678000,22.66535156,50262,16.12992225,1006.445847,56.8038597,1,2,2
1676678001,22.66574219,50322,16.13482861,1006.44992,56.76976263,1,1,1
1676678003,22.66671875,50443,16.14465148,1006.444716,56.81332934,1,1,1
1676678004,22.66769531,50749,16.14958697,1006.442931,56.82827186,1,1,1
1676678005,22.66828125,50934,16.15450372,1006.438783,56.86299954,1,1,1
1676678006,22.67042969,51121,16.15949664,1006.445798,56.8042748,1,1,1
1676678007,22.67140625,51214,16.16932183,1006.447432,56.79059292,1,1,1
1676678009,22.67296875,51593,16.16450882,1006.450047,56.76870194,1,1,3
1676678010,22.67394531,51625,16.14011448,1006.455101,56.72639556,1,1,3
1676678011,22.67472656,51721,16.10594273,1006.458118,56.70113784,1,1,3
1676678012,22.67609375,51625,16.09135082,1006.463826,56.65335884,1,1,2
1676678013,22.67628906,51849,16.08158923,1006.459023,56.69355916,1,1,2
1676678015,22.67785156,51881,16.07677962,1006.458219,56.70029282,1,1,2
1676678016,22.67824219,52074,16.08168375,1006.453744,56.7377571,1,1,2
1676678017,22.67863281,52107,16.10613203,1006.444139,56.81815889,1,1,2
1676678018,22.67921875,52269,16.11593368,1006.451959,56.75270009,1,1,2
1676678019,22.67980469,52400,16.1257362,1006.44952,56.77311587,1,1,2
1676678020,22.68078125,52433,16.14533442,1006.454574,56.73080928,1,1,2
1676678022,22.68136719,52598,16.15513959,1006.457264,56.70828784,1,1,2
1676678023,22.68273438,52664,16.16009472,1006.456133,56.71775824,1,1,2
1676678024,22.68332031,52796,16.17968013,1006.465662,56.63798728,1,1,2
1676678025,22.68390625,52863,16.199269,1006.461513,56.67271536,1,1,2
1676678026,22.68488281,53064,16.20909805,1006.456309,56.71628341,1,1,3
1676678028,22.68507813,53098,16.22378139,1006.451506,56.75648459,1,1,3
1676678029,22.68585938,53233,16.23849527,1006.445975,56.80278956,1,1,3
1676678030,22.68664063,53131,16.25321112,1006.438734,56.86340756,0,0,3
1676678031,22.68820313,53267,16.26307372,1006.43622,56.88445521,0,0,3
1676678032,22.69015625,53368,16.27295635,1006.442908,56.82846653,0,0,3
1676678034,22.69113281,53505,16.29258102,1006.441123,56.84341048,0,0,2
1676678035,22.69171875,53608,16.29750448,1006.435264,56.89245284,0,0,2
1676678036,22.69328125,53849,16.30737122,1006.446428,56.79899831,0,0,2
1676678037,22.69425781,54092,16.31721017,1006.448062,56.78531678,0,0,2
1676678038,22.69484375,54303,16.29765755,1006.447333,56.79142065,0,1,3
1676678040,22.69679688,54373,16.2928584,1006.452312,56.74974486,0,1,3
1676678041,22.69855469,54550,16.2537933,1006.453544,56.73943099,0,1,3
1676678042,22.69992188,54444,16.22939745,1006.454122,56.73458976,0,1,3
1676678043,22.70089844,54586,16.20498769,1006.455756,56.72090832,0,1,3
1676678044,22.70148438,54729,16.18056411,1006.458447,56.69838663,0,1,2
1676678045,22.70148438,54836,16.17567432,1006.465286,56.6411355,0,1,2
1676678047,22.70324219,55016,16.18553969,1006.463098,56.65944725,0,1,2
1676678048,22.70363281,54980,16.18066868,1006.458623,56.6969132,0,1,2
1676678049,22.70480469,55161,16.17583588,1006.465713,56.637557,0,1,2
1676678050,22.70675781,55380,16.16126262,1006.468982,56.61019423,0,1,2
1676678051,22.70714844,55712,16.15150379,1006.466216,56.63334736,1,1,2
1676678053,22.70871094,55637,16.14180272,1006.460282,56.68302175,1,1,2
1676678054,22.70988281,55527,16.10764669,1006.453694,56.73816921,1,1,2
1676678055,22.71046875,55564,16.08324363,1006.446126,56.80152597,0,1,2
1676678056,22.71183594,55564,16.08330981,1006.455253,56.72511972,0,1,2
1676678057,22.71339844,55674,16.07361428,1006.456158,56.7175428,0,1,2
1676678059,22.71398438,55786,16.05898743,1006.455429,56.72364717,0,1,2
1676678060,22.71496094,55860,16.05903465,1006.463903,56.65271356,0,1,2
1676678061,22.71671875,55972,16.06888963,1006.465135,56.64240042,0,1,2
1676678062,22.71769531,55935,16.05916685,1006.473608,56.57146702,0,1,1
1676678063,22.71828125,56047,16.06408009,1006.474589,56.56325829,0,1,1
1676678065,22.71984375,56160,16.0690408,1006.473784,56.56999445,0,1,1
1676678066,22.72179688,56273,16.07890626,1006.468504,56.61419764,1,1,1
1676678067,22.72296875,56235,16.07896299,1006.467045,56.62640664,1,1,1
1676678068,22.72375,56387,16.06922978,1006.463223,56.65840143,1,1,1
1676678069,22.72433594,56539,16.0985738,1006.460784,56.67881933,1,1,1
1676678071,22.72433594,56577,16.07414354,1006.453945,56.73607267,1,1,1
1676678072,22.72589844,56730,16.08887673,1006.44972,56.77143663,1,1,1
1676678073,22.726875,56692,16.09869684,1006.454774,56.72912871,0,1,1
1676678074,22.72804688,56807,16.09875363,1006.453316,56.74133836,0,1,1
1676678075,22.72863281,56885,16.10366877,1006.461136,56.67587605,0,1,1
1676678077,22.72960938,57156,16.10860309,1006.454221,56.73376222,1,1,1
1676678078,22.73019531,57274,16.13306959,1006.444942,56.8114349,1,1,1
1676678079,22.7315625,57195,16.13802425,1006.442101,56.83522246,1,1,1
1676678080,22.73175781,57352,16.13314546,1006.437298,56.87542734,1,2,2
1676678081,22.733125,57628,16.14787736,1006.439586,56.85627406,1,2,2
1676678082,22.73410156,57549,16.12348328,1006.434381,56.89984821,1,2,2
1676678084,22.73585938,57431,16.12356858,1006.445872,56.80365382,1,1,1
1676678085,22.73585938,57510,16.10890614,1006.440742,56.84659506,1,1,1
1676678086,22.73683594,57549,16.09429293,1006.440667,56.84722797,1,1,1
1676678087,22.73800781,57549,16.11389762,1006.446047,56.80218339,1,1,1
1676678088,22.73878906,57787,16.11882303,1006.447355,56.79123872,1,1,1
1676678090,22.74054688,57867,16.11402078,1006.458846,56.69504461,1,1,1
1676678091,22.74035156,57987,16.12867456,1006.45168,56.75503563,1,1,1
1676678092,22.74132813,58108,16.12383399,1006.451604,56.75566857,1,1,1
1676678093,22.7425,58229,16.11411552,1006.450145,56.7678792,1,1,1
1676678094,22.74347656,58229,16.11416289,1006.456909,56.71125704,1,1,1
1676678096,22.7440625,58392,16.10441677,1006.45789,56.70304857,1,1,1
1676678097,22.74464844,58555,16.08978494,1006.453741,56.73778149,1,1,1
1676678098,22.74464844,58596,16.08001251,1006.46229,56.66621261,1,1,1
1676678099,22.74464844,58719,16.08001251,1006.45887,56.69484011,1,1,1
1676678100,22.74464844,58884,16.06535546,1006.455451,56.72346768,1,1,1
1676678102,22.74464844,58884,16.07512661,1006.45716,56.70915388,1,1,1
1676678103,22.74601563,58967,16.07519279,1006.462868,56.66137327,1,1,1
1676678104,22.74601563,59050,16.06053632,1006.459448,56.69000081,1,1,1
1676678105,22.74601563,59050,16.07030708,1006.456029,56.71862843,1,1,1
1676678106,22.74679688,59385,16.0605741,1006.462466,56.66474243,1,1,1
1676678108,22.74757813,59385,16.06061189,1006.460353,56.68242542,1,1,1
1676678109,22.74835938,59470,16.04111057,1006.463371,56.65716703,1,1,1
1676678110,22.74875,59554,16.03624519,1006.458895,56.69463623,1,1,1
1676678111,22.74914063,59343,16.02649618,1006.459548,56.68916394,1,1,1
1676678112,22.74875,59217,16.01671032,1006.458895,56.69463623,0,0,0
1676678113,22.74992188,59343,16.03141774,1006.465986,56.63527788,0,0,0
1676678115,22.7503125,59724,16.04608941,1006.470059,56.60117803,0,0,0
1676678116,22.75128906,59724,16.04125211,1006.471693,56.58749732,0,0,0
1676678117,22.75226563,59639,16.03641499,1006.471618,56.58813041,0,0,0
1676678118,22.75148438,59597,16.03149318,1006.47373,56.57044742,0,0,0
1676678119,22.74992188,59809,16.0265339,1006.472825,56.57802282,0,0,0
1676678121,22.75070313,59895,16.0412238,1006.475843,56.55276452,0,0,0
1676678122,22.75070313,59938,16.04610829,1006.475843,56.55276452,0,0,0
1676678123,22.7503125,59852,16.05097411,1006.471769,56.58686427,0,0,0
1676678124,22.74992188,60153,16.06072524,1006.462566,56.66390553,0,0,0
1676678125,22.74992188,59938,16.05584013,1006.469405,56.60665031,0,0,0
1676678127,22.7503125,60413,16.07540077,1006.468349,56.6154918,0,0,0
1676678128,22.75128906,60067,16.08522023,1006.469983,56.6018111,0,0,0
1676678129,22.7503125,60240,16.09494593,1006.46151,56.6727471,0,0,0
1676678130,22.75089844,60283,16.09986116,1006.46249,56.66453869,0,1,1
1676678131,22.75148438,60326,16.10966387,1006.47202,56.58476118,0,1,1
1676678133,22.75246094,60501,16.12926246,1006.475364,56.55676672,0,1,1
1676678134,22.75382813,60501,16.14399455,1006.470813,56.59486897,0,1,1
1676678135,22.75402344,60545,16.15378224,1006.47285,56.57781901,0,1,1
1676678136,22.75402344,60808,16.1635613,1006.47285,56.57781901,0,1,1
1676678137,22.75539063,60808,16.16362781,1006.471718,56.58729378,0,1,1
1676678139,22.75636719,60808,16.16856519,1006.471642,56.58792702,0,1,1
1676678140,22.75792969,60852,16.17842166,1006.477677,56.5374103,0,1,1
1676678141,22.758125,60897,16.16865073,1006.481424,56.50604651,0,1,1
1676678142,22.758125,61074,16.16376083,1006.484843,56.47741892,0,1,1
1676678143,22.75871094,60852,16.15401015,1006.480694,56.51215197,0,1,1
1676678144,22.75851563,61030,16.15889014,1006.482077,56.50057427,0,1,1
1676678146,22.75792969,61119,16.1490829,1006.484517,56.48015504,0,1,1
1676678147,22.75753906,61253,16.14906392,1006.483863,56.48562729,0,1,1
1676678148,22.75851563,61343,16.15889014,1006.482077,56.50057427,0,1,1
1676678149,22.75851563,61433,16.16377983,1006.483787,56.48626046,0,1,1
1676678150,22.75871094,61659,16.15401015,1006.477274,56.54077968,0,1,1
1676678152,22.75910156,61841,16.16380833,1006.479638,56.52099358,0,1,1
1676678153,22.75871094,61932,16.15401015,1006.477274,56.54077968,0,1,1
1676678154,22.75851563,62024,16.13444486,1006.470108,56.60077144,0,1,1
1676678155,22.75949219,61978,16.12960385,1006.471742,56.58709086,0,1,1
1676678156,22.7596875,62024,16.10517436,1006.470359,56.59866871,0,1,1
1676678158,22.76066406,61750,16.11499669,1006.468573,56.61361613,0,1,1
1676678159,22.76125,61932,16.11991294,1006.469554,56.6054078,0,1,1
1676678160,22.76066406,61750,16.12477252,1006.473703,56.57067418,0,1,1
1676678161,22.76105469,62255,16.13456818,1006.474357,56.56520196,0,1,1
1676678162,22.76105469,62116,16.13456818,1006.479487,56.52226017,1,1,1
1676678164,22.76066406,62487,16.1345492,1006.466863,56.62793015,1,1,1
1676678165,22.76066406,62347,16.12966076,1006.475413,56.55636023,1,1,1
1676678166,22.76261719,62394,16.12486733,1006.478682,56.52899913,1,1,1
1676678167,22.7628125,62440,16.11998876,1006.479008,56.52626302,1,1,1
1676678168,22.76261719,62487,16.11997929,1006.480392,56.51468519,1,1,1
1676678169,22.76222656,62768,16.10529748,1006.478028,56.53447135,0,1,1
1676678171,22.76261719,62580,16.10531642,1006.473552,56.57194105,0,1,1
1676678172,22.7628125,62674,16.10043869,1006.467039,56.6264611,0,1,1
1676678173,22.76222656,62674,16.10529748,1006.462638,56.66329759,1,1,1
1676678174,22.76320313,62674,16.10534483,1006.460853,56.67824535,0,0,0
1676678175,22.76339844,62721,16.1053543,1006.469729,56.60393872,0,0,0
1676678177,22.76320313,62768,16.11511988,1006.469402,56.60667482,0,0,0
1676678178,22.76261719,62815,16.12975559,1006.471842,56.58625506,0,1,1
1676678179,22.76320313,62768,16.12000772,1006.474532,56.56373273,0,1,1
1676678180,22.76378906,63051,16.13470099,1006.470383,56.59846652,0,1,1
1676678181,22.76476563,62862,16.12985992,1006.473727,56.57047196,0,1,1
1676678183,22.76496094,63099,16.12498111,1006.477474,56.53910781,0,0,0
1676678184,22.76574219,62957,16.12013095,1006.477071,56.54247743,0,0,0
1676678185,22.76496094,63147,16.10543007,1006.479184,56.52479381,0,0,0
1676678186,22.76476563,63194,16.11030804,1006.478857,56.52752991,0,1,1
1676678187,22.764375,63338,16.10051444,1006.473074,56.57594416,0,1,1
1676678189,22.76378906,63434,16.09559903,1006.468673,56.61278059,0,1,1
1676678190,22.76417969,63820,16.09073117,1006.471037,56.59299432,0,1,1
1676678191,22.76535156,63482,16.08101497,1006.471288,56.5908918,0,2,2
1676678192,22.76535156,63626,16.06147157,1006.467868,56.61952001,0,2,2
1676678193,22.76496094,63675,16.05168226,1006.462084,56.66793465,0,2,2
1676678195,22.7659375,63869,16.03219114,1006.465429,56.63994001,0,2,2
1676678196,22.76535156,64113,16.02727879,1006.459318,56.69109086,0,2,2
1676678197,22.76496094,64064,16.0077259,1006.460375,56.68224884,0,2,2
1676678198,22.76574219,64310,15.98335077,1006.459972,56.68561868,0,2,2
1676678199,22.76652344,64113,15.96386194,1006.466409,56.63173174,0,2,2
1676678200,22.76691406,64064,15.94923811,1006.465353,56.64057373,0,2,2
1676678202,22.76730469,64064,15.93461615,1006.462587,56.66372997,0,2,2
1676678203,22.7675,64064,15.9248661,1006.464624,56.64667966,0,2,2
1676678204,22.76847656,64310,15.92491298,1006.464548,56.64731345,0,2,2
1676678205,22.76808594,64113,15.92489423,1006.463894,56.65278562,1,2,2
1676678206,22.76847656,64261,15.9297926,1006.464548,56.64731345,1,2,2
1676678208,22.76808594,64162,15.94929444,1006.463894,56.65278562,1,2,2
1676678209,22.76808594,64310,15.96393711,1006.463894,56.65278562,1,2,2
1676678210,22.76847656,64310,15.96883723,1006.457708,56.70457052,1,2,2
1676678211,22.76886719,64261,15.98350128,1006.456652,56.71341267,1,2,2
1676678212,22.76945313,64558,16.00305952,1006.459342,56.69089011,1,2,2
